# Case: 
# Density contrast = 5 kg/m3 (Density pure water ice = 920 kg/m3) 
# Ice shell thickness = 40.0 km 
# Tsurf = 110 K, Tbottom = 269.224 K 
# Thermal expansivity = 1.6e-4 1/K (constant) 
# Thermal conductivity = 2.3 W/m/K (constant) 
# Thermal diffusivity = 1.15×10−6 m2s−1 
# Column list: 
# Column 1: Radius in km 
# Column 2: minimum Temperature in K 
# Column 3: average Temperature in K 
# Column 4: maximum Temperature in K 
1520.7998175999999	269.224	269.224	269.224
1520.92481817	264.43188006909685	267.1682085851723	268.9272749494595
1521.1748193099995	259.52582143507107	263.9516664905485	268.59791897113206
1521.4248204500002	258.0894190519058	261.88778019852305	268.32125172532704
1521.6748215899997	257.8316693796133	260.67092597966996	268.0741724904944
1521.9248227299997	257.8170607740376	260.0101634492184	267.8510021225832
1522.17482387	257.8491549700657	259.6943134739443	267.64939535881507
1522.4248250099995	257.873409418483	259.57900962405625	267.46783097198374
1522.6748261500002	257.8908623976429	259.5724373094498	267.3046487221055
1522.9248272899997	257.9033150180395	259.6195126216901	267.15807643322114
1523.1748284299997	257.91386916888007	259.686856182383	267.02617268589654
1523.42482957	257.91988256463634	259.7555268926143	266.907032069882
1523.6748307099995	257.9247950841186	259.8149909656952	266.7988010413509
1523.9248318500001	257.9301473934347	259.8605591984568	266.69981286384007
1524.1748329899997	257.9085307517912	259.89159675543783	266.6085652770882
1524.4248341299997	257.37256107866597	259.91023057203665	266.52378433798503
1524.6748352699997	256.90636166235697	259.920125061583	266.44437371070495
1524.9248364099994	256.5511207498479	259.9253145837499	266.36943955742834
1525.1748375500001	256.32545683799185	259.9298819100437	266.2982325763718
1525.4248386899997	256.2330212232305	259.9372528507523	266.23015826369954
1525.6748398299997	256.2602841838242	259.94948735128196	266.1647254900521
1525.9248409700003	256.38963768134545	259.9674409242382	266.1015515245683
1526.1748421099994	256.60383585654586	259.99099868508904	266.04032225881474
1526.42484325	256.8869988079729	260.019716482399	265.98079585745586
1526.6748443899996	257.22114554365476	260.0523066277425	265.92277473062074
1526.9248455299996	257.53334720810165	260.08682931709154	265.86610810074296
1527.17484667	257.7083745013344	260.1214032825584	265.81067350342727
1527.4248478099996	257.760537750219	260.15454962577667	265.7563780464634
1527.67484895	257.69149691324753	260.18512192977266	265.7031461865652
1527.9248500899996	257.6328458705449	260.2125478253413	265.65092130516604
1528.1748512299996	257.58404140152396	260.23668679740183	265.5996571244726
1528.4248523699998	257.544325345738	260.2576253760949	265.5493197272905
1528.6748535099996	257.5127765926789	260.27561102084815	265.49988040015717
1528.92485465	257.4884251394239	260.29099547272597	265.4513187427974
1529.1748557899996	257.47022449791586	260.30429043151116	265.40361658922376
1529.4248569299998	257.4570405333343	260.31605863834795	265.3567611996423
1529.6748580700003	257.4479006268283	260.32697480228506	265.31074051347383
1529.9248592099996	257.4421209634414	260.33783529509606	265.26554560560623
1530.1748603500002	257.4391852772608	260.3493740827346	265.2211680503551
1530.4248614899996	257.4386628957207	260.3621218100096	265.1776004476059
1530.6748626299998	257.44016184877967	260.3763826753692	265.13483650883995
1530.9248637700002	257.4433119320274	260.39205610118825	265.0928692756627
1531.1748649099995	257.4477638686726	260.40833074246547	265.051693375976
1531.4248660500002	257.4532012410837	260.42409194178435	265.0113020051104
1531.67486719	257.4593562047052	260.4377362596855	264.9716898604507
1531.9248683299998	257.4660160413425	260.4475886085918	264.9328480363011
1532.1748694700004	257.47301133410645	260.45243181412553	264.89472624455146
1532.4248706099995	257.48021840516844	260.4518915882407	264.8572703477418
1532.6748717500002	257.48753377773534	260.44654277125267	264.82048165057205
1532.9248728899997	257.4948838738021	260.4379048440155	264.7843592785606
1533.1748740299997	257.5021990326828	260.4276028376985	264.7489033220917
1533.4248751700004	257.50942759771647	260.4171730862213	264.7141107870702
1533.6748763099995	257.50721095765675	260.4076011637181	264.67998034289303
1533.9248774500002	257.5017535995888	260.39947276109115	264.6465065090895
1534.17487859	257.46091142928947	260.3929439034372	264.6136870037791
1534.4248797299997	257.4530756353172	260.38817987591494	264.58151440510073
1534.6748808700004	257.4092073583787	260.3852169719314	264.54998575737386
1534.9248820099992	257.39042486982976	260.38403270931906	264.5190925125046
1535.1748831500001	257.3452565432642	260.3844264051637	264.48883110103395
1535.4248842899997	257.311930202442	260.3862036149012	264.45919254223276
1535.6748854299997	257.2767251470887	260.3889598218874	264.43017273034343
1535.9248865700004	257.23042075509863	260.3922828437302	264.4017628959065
1536.1748877099994	257.2074902628335	260.3956952638082	264.373958522623
1536.4248888500001	257.1511302858984	260.3988536909003	264.34675148651144
1536.6748899899999	257.1360995298424	260.4017753099114	264.3201372420703
1536.9248911299997	257.0723694426209	260.40467800780135	264.2941084630668
1537.1748922700003	257.0491914760138	260.40812728900625	264.268661166708
1537.4248934099994	256.9727779432144	260.4129061333623	264.2437890747136
1537.67489455	256.93278824464517	260.42013994228955	264.21948922848605
1537.9248956899996	256.86961077438013	260.4307921891699	264.1957543368838
1538.1748968299996	256.80975830763543	260.445536878269	264.1725807688374
1538.4248979700003	256.7748407433987	260.4644432456867	264.149960902182
1538.6748991099998	256.68212983946063	260.4868508428917	264.1278918360223
1538.92490025	256.6506240917221	260.51155604978305	264.10636874561015
1539.1749013899998	256.5273978128673	260.5366059891553	264.0853943841462
1539.4249025299996	256.4720468714141	260.5597006303649	264.06497093160203
1539.6749036700003	256.3672651853659	260.5783697318294	264.1455866086942
1539.9249048099998	256.2790232983375	260.5905970939033	264.23422479892577
1540.17490595	256.22282331314545	260.5952361891908	264.2794254486853
1540.4249070899996	256.08285752294546	260.5919322938247	264.26184020750844
1540.6749082299996	256.01870958328004	260.58166898087813	264.1695652833364
1540.9249093700003	255.59429876941488	260.565517752162	263.9621061419929
1541.1749105099998	254.98523925988638	260.54489498575174	263.9383708457986
1541.4249116500002	254.5149060447303	260.52140723265063	263.9227987345631
1541.6749127899996	254.15817018361773	260.4965034419225	263.9078251449296
1541.9249139299998	253.94071947731956	260.47207040753733	263.8934579779907
1542.1749150700002	253.79898012896257	260.44927018440114	263.8796382196198
1542.4249162099998	253.69194151170802	260.42884333655525	263.8664140589908
1542.6749173500002	253.60159852659302	260.4120307936523	263.85390271530343
1542.9249184899995	253.5040126030579	260.40027340999484	263.8423263136175
1543.1749196299997	253.40512040074015	260.394758041278	263.831849547013
1543.4249207700002	253.33923874872139	260.396688336839	263.8226152000668
1543.6749219099997	253.29005951651976	260.4054151744324	263.8147898568378
1543.9249230500002	253.17114604723244	260.4189757552949	263.8086021945126
1544.17492419	252.97833277349193	260.4360609700862	263.8043942952513
1544.4249253299997	252.56726266197919	260.4548572393545	263.8026141124701
1544.6749264700004	252.20502949445003	260.4734545233632	263.8027103585421
1544.9249276099997	251.81371884094742	260.49101210860556	263.7913808810379
1545.1749287500002	251.09389210641436	260.5062014425693	263.66865416825715
1545.4249298899997	250.42636877322443	260.51446764199153	263.38468446480823
1545.6749310299997	249.79828492201847	260.5026377764948	263.1483230314486
1545.9249321700004	249.27097195301351	260.47055873734155	262.9664308489253
1546.1749333099997	248.2916653944466	260.43526231064016	262.9048007034268
1546.4249344500001	247.3942716144192	260.4038272213687	263.0211527015317
1546.6749355900001	246.6473867066566	260.37354377590765	263.043996499739
1546.9249367299997	245.65617401507765	260.33986746361893	262.94221241386697
1547.1749378700003	244.57345500863235	260.29925941535123	262.6959979415768
1547.42493901	243.83610462203228	260.248329532233	262.46437996379416
1547.67494015	242.59683238817698	260.1831878993115	262.4527644454753
1547.92494129	241.6870309123351	260.100262549632	262.43524022432706
1548.1749424299996	240.56039751562346	259.9942384152258	262.4318071642964
1548.4249435700003	239.55641534806537	259.85927347094645	262.42271979395696
1548.6749447099999	238.3886416772772	259.68809662350304	262.42202560856856
1548.92494585	237.3479613114884	259.4722449166625	262.425642946151
1549.17494699	236.0338477533936	259.2013667467467	262.43262214093465
1549.42494813	234.87303982637835	258.8618073219515	262.4409824954529
1549.6749492700003	233.47606412733086	258.43368666265576	262.4483074664814
1549.9249504099998	232.07594164931047	257.8893282817845	262.45657123432443
1550.17495155	230.61035003263035	257.195765005972	262.4630724490751
1550.4249526900003	228.98782212359183	256.3184781917804	262.4674459035607
1550.67495383	227.3067784496947	255.22770428071357	262.46967938162743
1550.9249549700003	225.46842645741853	253.9026774808254	262.46882675641905
1551.1749561099998	223.51285459927303	252.33949453542567	262.4652102132713
1551.42495725	221.44552496689315	250.55086668798475	262.4506049448013
1551.6749583900003	219.25167158777026	248.55459131579602	262.4185299352548
1551.92495953	216.92990061075193	246.35378220636696	262.3552211417384
1552.1749606700002	214.51027064678752	243.93194153032965	262.2316789367885
1552.42496181	212.00295444901454	241.26670648719735	261.99453066970267
1552.6749629500002	209.41750860188174	238.3479761175536	261.5409194934873
1552.9249640900002	206.76304433852334	235.187719372409	260.7292833185645
1553.17496523	204.0437407978719	231.81025716202404	259.42856863567977
1553.4249663700002	201.26663018846094	228.2437493952072	258.0739846525321
1553.6749675099998	198.44239508402006	224.51715249093925	256.080978160045
1553.9249686500002	195.5762425148166	220.660909401527	253.11130317069646
1554.1749697900002	192.6665364237967	216.70714325724305	249.14755767469356
1554.42497093	189.72522389774974	212.68732648906217	244.3619821098543
1554.6749720700006	186.75334570977498	208.62829996660193	239.0105515204567
1554.9249732099997	183.75458408768174	204.549939542078	233.34332284336534
1555.1749743500002	180.73307399658313	200.46519492868833	227.54747408710102
1555.4249754900002	177.6909929135338	196.38161397695404	221.73925469991866
1555.67497663	174.63031262104977	192.3031509749951	215.98026968169813
1555.9249777700006	171.5549686924405	188.231624264979	210.2976186582724
1556.1749789099997	168.463941270048	184.16767812229614	204.70097229204276
1556.4249800500002	165.36057920970435	180.11136015959823	199.19408110173555
1556.6749811900008	162.24644896441026	176.0624417709936	193.76276805383128
1556.92498233	159.12238606688268	172.020579257653	188.39959785964706
1557.1749834700006	155.988145178199	167.9853915506048	183.10525510366654
1557.4249846099997	152.84608366846777	163.9564924101091	177.8647103389966
1557.6749857500001	149.6969365144311	159.93350154636306	172.6733689876525
1557.9249868900001	146.54141265063174	155.9160472594578	167.5269119164078
1558.17498803	143.38019683495764	151.90376588161217	162.416208755808
1558.4249891700006	140.2139514791789	147.89630045052584	157.34010304428384
1558.6749903100003	137.04331840811457	143.89329947088987	152.28994386890668
1558.92499145	133.86869383573003	139.89441593753375	147.26506051613546
1559.1749925900008	130.6910025889383	135.89930661438513	142.25846677713952
1559.4249937299999	127.51081903461838	131.90763148948056	137.2694916987396
1559.6749948700005	124.32870356085957	127.91905333053447	132.29310083448792
1559.9249960100003	121.14520696988748	123.93323728682581	127.3274707224742
1560.17499715	117.96087193732927	119.94985050528467	122.37028753012635
1560.4249982900008	114.77623455877944	115.96856174478407	117.4191322119115
1560.6749994299998	111.59182597131641	111.9890409831391	112.47222093430365
1560.8	110.0	110.0	110.0
