# Case: 
# Density contrast = 46 kg/m3 (Density pure water ice = 920 kg/m3) 
# Ice shell thickness = 40.0 km 
# Tsurf = 110 K, Tbottom = 269.224 K 
# Thermal expansivity = 1.6e-4 1/K (constant) 
# Thermal conductivity = 2.3 W/m/K (constant) 
# Thermal diffusivity = 1.15×10−6 m2s−1 
# Column list: 
# Column 1: Radius in km 
# Column 2: Temperature in K 
# Column 3: Density in kg/m3 
# Column 4: Salt concentration in wt% 
1520.7998175999999	269.224	924.6	0.7499999999999999
1520.92481817	266.6865665135902	922.2548695233049	0.36764177010406085
1521.1748193099995	262.7706589466129	922.235645984613	0.3645074974912511
1521.4248204500002	260.41822732367916	922.226158749625	0.3629606656997362
1521.6748215899997	259.2048253894147	922.2233949187283	0.36251004109701773
1521.9248227299997	258.62703148839586	922.2237036116057	0.3625603714574505
1522.17482387	258.36446977201103	922.2254547390619	0.3628458813687889
1522.4248250099995	258.25763869015174	922.2276994562275	0.3632118678631821
1522.6748261500002	258.2281885515943	922.2300600742137	0.36359675123049195
1522.9248272899997	258.23945512152227	922.2324924534954	0.3639933348090426
1523.1748284299997	258.2737179160034	922.235218825768	0.3644378520274024
1523.42482957	258.3221891109642	922.2381840969318	0.36492132015193135
1523.6748307099995	258.37917956143735	922.2414707378126	0.3654571855129348
1523.9248318500001	258.44066384448524	922.2448677161641	0.36601104067892865
1524.1748329899997	258.50389699056046	922.248346644169	0.366578257201481
1524.4248341299997	258.5667914694436	922.251752558316	0.36713356929064167
1524.6748352699997	258.6274007215874	922.2549959377469	0.36766238115438027
1524.9248364099994	258.6840561892941	922.2581585140422	0.3681780185938352
1525.1748375500001	258.73603654945566	922.2609908556893	0.3686398134276064
1525.4248386899997	258.7833579966723	922.2635447784417	0.3690562138763583
1525.6748398299997	258.8266847299964	922.265728580923	0.3694122686287511
1525.9248409700003	258.8677721125497	922.2677514049834	0.36974207689946226
1526.1748421099994	258.90748847531836	922.2694224681561	0.3700145328515358
1526.42484325	258.94640614079225	922.2709151900593	0.37025791142270836
1526.6748443899996	258.984881540238	922.2720619493981	0.37044488305404827
1526.9248455299996	259.0227854073488	922.2728304729969	0.370570185814716
1527.17484667	259.0597735680045	922.2734015127638	0.3706632901245318
1527.4248478099996	259.095112247555	922.2734982545786	0.3706790632465187
1527.67484895	259.1276860927808	922.2733746415968	0.3706589089559962
1527.9248500899996	259.156693366357	922.2728435893778	0.37057232435507764
1528.1748512299996	259.1811788254297	922.2717672878604	0.37039684041202087
1528.4248523699998	259.20005412648254	922.2704009849482	0.37017407363286686
1528.6748535099996	259.213922402085	922.2684736568592	0.36985983535747824
1528.92485465	259.2261300107831	922.2665376280321	0.3695441784834862
1529.1748557899996	259.24131961059874	922.2649132397711	0.36927933257137346
1529.4248569299998	259.26233459972934	922.2640009586862	0.36913059109014307
1529.6748580700003	259.28809431286265	922.2642964061356	0.36917876186994014
1529.9248592099996	259.3137004353024	922.2647760438024	0.3692569636634316
1530.1748603500002	259.3339013179986	922.2653704026831	0.3693538700026694
1530.4248614899996	259.3452436459363	922.2658656869472	0.3694346228718216
1530.6748626299998	259.34661426781065	922.2662762347184	0.3695015600084326
1530.9248637700002	259.33856064501174	922.2663805333132	0.36951856521409593
1531.1748649099995	259.3231786469727	922.2664370639707	0.36952778216912646
1531.4248660500002	259.3029065415625	922.2665463693617	0.3695456037002719
1531.67486719	259.2801679746617	922.2667080454746	0.3695719639360844
1531.9248683299998	259.2574523356998	922.2668069428485	0.3695880885079065
1532.1748694700004	259.23733467060936	922.2669498884121	0.3696113948497938
1532.4248706099995	259.2213482584633	922.2672529994136	0.36966081512177895
1532.6748717500002	259.2097863370799	922.2675271292995	0.3697055102118765
1532.9248728899997	259.20159750714254	922.2679225510085	0.36976998114269377
1533.1748740299997	259.19512559581784	922.2683165299604	0.3698342168413711
1533.4248751700004	259.1879968520535	922.2686559315358	0.3698895540547502
1533.6748763099995	259.17825929961043	922.2686965899557	0.3698961831449522
1533.9248774500002	259.1645367624528	922.2687198601609	0.3698999772001435
1534.17487859	259.14677508317345	922.2686040568773	0.36988109622999515
1534.4248797299997	259.12572476010325	922.2683263337613	0.3698358152871648
1534.6748808700004	259.10363692366855	922.2678437895916	0.36975713960731416
1534.9248820099992	259.08328951637475	922.267202145334	0.36965252369575624
1535.1748831500001	259.0677216547939	922.2665318434978	0.36954323535289685
1535.4248842899997	259.05890411209873	922.2658593864376	0.3694335956148155
1535.6748854299997	259.05797315128734	922.2652641035313	0.36933653861923404
1535.9248865700004	259.06442505259054	922.264786993383	0.3692587489211436
1536.1748877099994	259.0767446254046	922.2643755793575	0.36919167054742563
1536.4248888500001	259.09324516648627	922.2640240269891	0.3691343522264737
1536.6748899899999	259.11191309593494	922.2635805400693	0.36906204457651365
1536.9248911299997	259.13049615261525	922.2630491350433	0.3689754024527127
1537.1748922700003	259.14615154725504	922.26236301882	0.36886353567717756
1537.4248934099994	259.1550114245405	922.2610825796304	0.36865476841799066
1537.67489455	259.1502283597224	922.2592048305695	0.3683486136798032
1537.9248956899996	259.1280552830599	922.2560388486752	0.3678324209796453
1538.1748968299996	259.0957739753635	922.2524439527936	0.36724629665112773
1538.4248979700003	259.07111093283334	922.2499870948495	0.3668457219863389
1538.6748991099998	259.0698172050445	922.2491910414693	0.36671593067433916
1538.92490025	259.09497249596404	922.2498671984279	0.3668261736567121
1539.1749013899998	259.13773788991136	922.2508881509051	0.3669926332997352
1539.4249025299996	259.1853592369041	922.2513313467641	0.3670648934941478
1539.6749036700003	259.22611651320517	922.2508901788561	0.36699296394393044
1539.9249048099998	259.2546457331421	922.2504857082366	0.3669270176472753
1540.17490595	259.2704397497205	922.2501786056555	0.36687694657426595
1540.4249070899996	259.2775781243182	922.2499207849121	0.3668349105834877
1540.6749082299996	259.27941494075884	922.2492727420204	0.36672925141635976
1540.9249093700003	259.2798016342152	922.2485426435217	0.3666102136176678
1541.1749105099998	259.2789906081229	922.2473018354668	0.36640790795654776
1541.4249116500002	259.2769148639107	922.2455411369529	0.36612083754666797
1541.6749127899996	259.2706628472421	922.243607502448	0.3658055710512983
1541.9249139299998	259.2572990887584	922.2406664717938	0.36532605518377426
1542.1749150700002	259.2312111758539	922.237463182797	0.3648037798038535
1542.4249162099998	259.18503194661656	922.2336774239519	0.3641865365139052
1542.6749173500002	259.108283700758	922.2287405067357	0.3633816043590804
1542.9249184899995	258.98845408776475	922.2232071763768	0.3624794309310062
1543.1749196299997	258.8086495111125	922.2160942446104	0.36131971379518324
1543.4249207700002	258.5526706610484	922.207555501984	0.35992752749737617
1543.6749219099997	258.1978876574833	922.1959912726703	0.3580420553266812
1543.9249230500002	257.72419204789963	922.1819426147243	0.35575151327026616
1544.17492419	257.1237510618656	922.1602139088045	0.3522087894789887
1544.4249253299997	256.4053864610675	922.1343958095156	0.3479993167688444
1544.6749264700004	255.59249522198297	922.1125232591601	0.3444331400804421
1544.9249276099997	254.69507074233942	922.0890709237273	0.3406093897381422
1545.1749287500002	253.69703525939033	922.0588726279599	0.3356857545586825
1545.4249298899997	252.55164446182977	922.0201233031414	0.32936792986000807
1545.6749310299997	251.20328125082105	921.9738026187026	0.32181564435369236
1545.9249321700004	249.609891880293	921.9172123230871	0.31258896572073813
1546.1749333099997	247.74184462519386	921.8494342267378	0.30153818914204056
1546.4249344500001	245.58234995776155	921.769058726801	0.2884334880653635
1546.6749355900001	243.13185788782613	921.6776937292781	0.27353702107793965
1546.9249367299997	240.40917623735226	921.5860939208748	0.2586022697078462
1547.1749378700003	237.4504782469897	921.4849595980019	0.24211297793508785
1547.42493901	234.3020822533801	921.3583124187173	0.22146398131261075
1547.67494015	231.01317480263657	921.196916538625	0.19514943564538978
1547.92494129	227.63038035249343	921.0255186317701	0.167204124745119
1548.1749424299996	224.1952870335224	920.8590318395351	0.14005953905463964
1548.4249435700003	220.74348503738702	920.6966130418224	0.11357821334059805
1548.6749447099999	217.30400996490755	920.5483849451031	0.08941058887550529
1548.92494585	213.8991727528985	920.4303853049629	0.07017151711350822
1549.17494699	210.5449392086911	920.3425796489079	0.05585537753933596
1549.42494813	207.2520446415005	920.2772893139348	0.04521021422851063
1549.6749492700003	204.02718452593336	920.2308234047841	0.03763425078003054
1549.9249504099998	200.87407379865564	920.2060021680866	0.03358731001412146
1550.17495155	197.79435562700098	920.1906584547143	0.031085617616450817
1550.4249526900003	194.78823396619407	920.1773308078359	0.02891263171238225
1550.67495383	191.85491927352507	920.1650998841433	0.026918459371188558
1550.9249549700003	188.9929420635151	920.1541136348956	0.02512722308079615
1551.1749561099998	186.20038025400476	920.144142051087	0.02350142137288278
1551.42495725	183.47502564632742	920.1359926058809	0.02217270748058739
1551.6749583900003	180.8145052737532	920.130254233798	0.021237103336634644
1551.92495953	178.21636863216162	920.1258444776696	0.02051812135918077
1552.1749606700002	175.67814813060014	920.1229687621641	0.020049254700673393
1552.42496181	173.19739975198374	920.1216192201882	0.019829220682857078
1552.6749629500002	170.77172865670855	920.1189682877866	0.019397003443465975
1552.9249640900002	168.3988035428611	920.1178574688996	0.019215891668410045
1553.17496523	166.07636326346702	920.1171854649459	0.019106325806396728
1553.4249663700002	163.80221819781488	920.1174813636645	0.019154570162688914
1553.6749675099998	161.5742484102975	920.1211815248448	0.01975785731164615
1553.9249686500002	159.39039997652074	920.1295774448686	0.02112675731553265
1554.1749697900002	157.24868048728356	920.1474345737699	0.024038245723361246
1554.42497093	155.14715436357594	920.1723922858513	0.02810743791053974
1554.6749720700006	153.08393837487586	920.2261484944784	0.03687203714320958
1554.9249732099997	151.05719754996778	920.3343037379404	0.05450604422942539
1555.1749743500002	149.06514156486858	920.5775689355851	0.09416884819321278
1555.4249754900002	147.10602160339494	921.0334597221724	0.16849886774551326
1555.67497663	145.178127642194	921.8326051094405	0.2987943113218201
1555.9249777700006	143.27978609582698	923.3369409871908	0.5440664653028592
1556.1749789099997	141.40935774962034	925.896994987914	0.9614665741164212
1556.4249800500002	139.56523591117096	929.6131901655068	1.567367961767418
1556.6749811900008	137.7458447191079	934.0199119321958	2.2858552063362634
1556.92498233	135.949637557631	938.303712630954	2.984300972438151
1557.1749834700006	134.17509553552807	941.6786578387075	3.534563778050142
1557.4249846099997	132.42072599770017	944.0507512105572	3.9213181321560766
1557.6749857500001	130.68506104549812	945.9809672858339	4.2360272748642185
1557.9249868900001	128.96665604904277	947.799352712476	4.5325031596428245
1558.17498803	127.26408814024118	949.6584412810251	4.835615426254098
1558.4249891700006	125.57595467959734	951.6035766654791	5.152757065023753
1558.6749903100003	123.90087169323021	953.6500658308777	5.4864237767735275
1558.92499145	122.23747227898255	955.8242965932753	5.840917922816629
1559.1749925900008	120.58440498226983	958.1352820296873	6.217709026579456
1559.4249937299999	118.94033214358639	960.5948575188874	6.6187267693838105
1559.6749948700005	117.30392822034491	963.2129370665074	7.045587565191413
1559.9249960100003	115.67387808632049	965.9999999999962	7.499999999999396
1560.17499715	114.0488753122234	966.0	7.5
1560.4249982900008	112.42762043108844	966.0	7.5
1560.6749994299998	110.80881919226462	966.0	7.5
1560.8	110.0	966.0	7.5
