# Case: 
# Density contrast = 11 kg/m3 (Density pure water ice = 920 kg/m3) 
# Ice shell thickness = 40.0 km 
# Tsurf = 110 K, Tbottom = 269.224 K 
# Thermal expansivity = 1.6e-4 1/K (constant) 
# Thermal conductivity = 2.3 W/m/K (constant) 
# Thermal diffusivity = 1.15×10−6 m2s−1 
# Column list: 
# Column 1: Radius in km 
# Column 2: Temperature in K 
# Column 3: Density in kg/m3 
# Column 4: Salt concentration in wt% 
1520.7998175999999	269.224	921.1	0.1793478260869565
1520.92481817	267.3557235561201	920.4519054173122	0.07368023108352195
1521.1748193099995	264.3348214033422	920.4528611767533	0.07383606142717164
1521.4248204500002	262.3011943403331	920.4534197657682	0.07392713572308221
1521.6748215899997	261.041070758367	920.4536008780525	0.07395666489986649
1521.9248227299997	260.2796755117648	920.4535767619117	0.07395273292037567
1522.17482387	259.8249299201688	920.4533987759482	0.07392371346981831
1522.4248250099995	259.5593812350823	920.4531175269151	0.07387785764919133
1522.6748261500002	259.4135481240255	920.4527588874176	0.07381938381808703
1522.9248272899997	259.346509520489	920.4523518958487	0.07375302649706338
1523.1748284299997	259.3309863395249	920.4518867282293	0.07367718395041732
1523.42482957	259.3482672561386	920.4513927100775	0.07359663751263908
1523.6748307099995	259.3854878584892	920.4508890075303	0.07351451209733813
1523.9248318500001	259.43393022162854	920.4503500491026	0.07342663844063754
1524.1748329899997	259.488475118032	920.4498052550003	0.0733378133152705
1524.4248341299997	259.5461530631941	920.4492468279205	0.07324676542183593
1524.6748352699997	259.60475899552176	920.4487220662116	0.07316120644754909
1524.9248364099994	259.6623050044269	920.4482005829166	0.07307618199726221
1525.1748375500001	259.7171179813698	920.447714252044	0.07299688892021598
1525.4248386899997	259.76773368048384	920.4472863547942	0.0729271230642762
1525.6748398299997	259.81334440186254	920.4469108849588	0.07286590515632746
1525.9248409700003	259.853910440904	920.4465954990454	0.07281448354001017
1526.1748421099994	259.8899646225085	920.4463308635305	0.07277133644520063
1526.42484325	259.92221643640914	920.4461118853992	0.07273563348899295
1526.6748443899996	259.95157351238254	920.4459160501344	0.07270370382626277
1526.9248455299996	259.97886280041735	920.4457517193955	0.07267691077100677
1527.17484667	260.0044898257237	920.4456076216627	0.07265341657544513
1527.4248478099996	260.0283719045191	920.4454807200192	0.07263272609007808
1527.67484895	260.0498464556373	920.4453743316675	0.07261538016317941
1527.9248500899996	260.0679264428802	920.4452865446848	0.07260106706817722
1528.1748512299996	260.0817286879874	920.4452186020629	0.07258998946679077
1528.4248523699998	260.09069463749984	920.4451670446953	0.07258158337422416
1528.6748535099996	260.09496861686796	920.4451237475683	0.07257452406004994
1528.92485465	260.09546470945213	920.4450827779406	0.07256784422944867
1529.1748557899996	260.09348758097224	920.445045433955	0.07256175553614658
1529.4248569299998	260.09039009588207	920.4450119817894	0.07255630137871552
1529.6748580700003	260.0869403886426	920.4449791258309	0.07255094442894316
1529.9248592099996	260.0832805857355	920.4449543872253	0.07254691096064053
1530.1748603500002	260.0790593796663	920.4449352442864	0.07254378982930416
1530.4248614899996	260.0739190435013	920.4449243978044	0.07254202138113741
1530.6748626299998	260.0677113761383	920.4449237494086	0.07254191566445349
1530.9248637700002	260.0607386865644	920.44493006758	0.07254294580108467
1531.1748649099995	260.0535863556478	920.4449408227339	0.07254469935878682
1531.4248660500002	260.04708059371137	920.4449526661061	0.07254663034339623
1531.67486719	260.0419903034694	920.4449535247451	0.07254677033887001
1531.9248683299998	260.0389140061355	920.4449480536298	0.07254587830920826
1532.1748694700004	260.03810951653156	920.4449380577789	0.07254424855090931
1532.4248706099995	260.03944568111626	920.4449260010897	0.07254228278636762
1532.6748717500002	260.04259027693064	920.4449221494605	0.07254165480334168
1532.9248728899997	260.047286095467	920.444920013161	0.07254130649363913
1533.1748740299997	260.05321840965996	920.4449248856176	0.07254210091591762
1533.4248751700004	260.0600154140511	920.4449256658575	0.07254222812893492
1533.6748763099995	260.06732354157066	920.4449206126174	0.07254140423109465
1533.9248774500002	260.0746822130522	920.4449147389491	0.07254044656779675
1534.17487859	260.08141839366226	920.4448971929385	0.07253758580518307
1534.4248797299997	260.0865712466407	920.4448713708279	0.07253337567845475
1534.6748808700004	260.08885108854344	920.4448299443177	0.07252662135613991
1534.9248820099992	260.0871550014482	920.444778519372	0.07251823685413256
1535.1748831500001	260.081038505053	920.4447299447809	0.07251031708383028
1535.4248842899997	260.0708213454823	920.4446805148189	0.07250225785090433
1535.6748854299997	260.05794692849815	920.4446300247331	0.07249402577169739
1535.9248865700004	260.04439654711575	920.4445915466633	0.07248775217337569
1536.1748877099994	260.0323230038047	920.4445556453817	0.0724818987035363
1536.4248888500001	260.0235040736992	920.4445343437596	0.07247842561297976
1536.6748899899999	260.0190494315044	920.4445278750982	0.07247737093992608
1536.9248911299997	260.0192206182546	920.444531402285	0.07247794602471484
1537.1748922700003	260.0235706113124	920.4445360469482	0.0724787033067705
1537.4248934099994	260.03118420488954	920.4445630927279	0.0724831129447673
1537.67489455	260.0411010524015	920.4445910885643	0.07248767748329707
1537.9248956899996	260.05244408652334	920.4446241394379	0.07249306621269291
1538.1748968299996	260.06457203305695	920.4446592033971	0.07249878316257416
1538.4248979700003	260.07674836929925	920.4447025062949	0.07250584341764377
1538.6748991099998	260.0883201311493	920.4447462926928	0.07251298250426068
1538.92490025	260.09885797037964	920.4447864225665	0.07251952541844857
1539.1749013899998	260.1078432598169	920.4448153182359	0.07252423666890445
1539.4249025299996	260.115023894876	920.4448450632733	0.07252908640324732
1539.6749036700003	260.12024838635574	920.4448488604921	0.0725297055150249
1539.9249048099998	260.123172927987	920.444823773558	0.07252561525402235
1540.17490595	260.1235456608208	920.444782497114	0.07251888539901996
1540.4249070899996	260.1206710943174	920.4447430853986	0.07251245957586167
1540.6749082299996	260.11415809224843	920.4446946050047	0.07250455516380835
1540.9249093700003	260.10361236332005	920.4446564112408	0.07249832791969411
1541.1749105099998	260.08900963012866	920.4446302760042	0.07249406673982339
1541.4249116500002	260.0709535723656	920.4446295420639	0.0724939470756415
1541.6749127899996	260.0499773579563	920.4446352252043	0.0724948736746071
1541.9249139299998	260.0270020909032	920.4446639368817	0.07249955492637215
1542.1749150700002	260.00290436970363	920.4446942200138	0.07250449239357015
1542.4249162099998	259.9792591284035	920.4447263347759	0.07250972849606088
1542.6749173500002	259.9577051570052	920.444770240962	0.0725168871133752
1542.9249184899995	259.9398585554029	920.4448105414813	0.07252345785021665
1543.1749196299997	259.9269201766991	920.4448317757485	0.07252691995899575
1543.4249207700002	259.91906678763957	920.4448570569683	0.07253104189700482
1543.6749219099997	259.9153275918404	920.4448693203628	0.0725330413635156
1543.9249230500002	259.91454529073127	920.4448866008012	0.0725358588262778
1544.17492419	259.9148812738347	920.4448930510765	0.07253691050160573
1544.4249253299997	259.91551316967616	920.4448978980366	0.07253770076683773
1544.6749264700004	259.91457045000215	920.4449048190285	0.0725388291894222
1544.9249276099997	259.91276404341113	920.4449428383166	0.07254502798640439
1545.1749287500002	259.9095101769834	920.4449708826594	0.07254960043359132
1545.4249298899997	259.90495032052115	920.4450103070006	0.07255602831531358
1545.6749310299997	259.89997699478175	920.4450810007615	0.07256755447199692
1545.9249321700004	259.89385259685986	920.4451323831249	0.07257593203124615
1546.1749333099997	259.8875677446218	920.4452136439013	0.07258918107087206
1546.4249344500001	259.88140312201745	920.4452661817724	0.07259774702809788
1546.6749355900001	259.8749536861578	920.445351963179	0.07261173312700081
1546.9249367299997	259.8700379072314	920.4454325212657	0.07262486759767457
1547.1749378700003	259.8654876151734	920.4455090263949	0.07263734126004537
1547.42493901	259.859902094484	920.4456146611689	0.07265456432100476
1547.67494015	259.8510634956343	920.4457054051644	0.07266935953767792
1547.92494129	259.83436020778345	920.4458673166006	0.0726957581414052
1548.1749424299996	259.8057614504787	920.4460506494047	0.07272564935946423
1548.4249435700003	259.7587321282336	920.446367884076	0.07277737240369964
1548.6749447099999	259.6825610864056	920.4467316803319	0.0728366870106442
1548.92494585	259.56438985478746	920.4471246257034	0.07290075419077408
1549.17494699	259.3836639816092	920.4473610946092	0.07293930890366995
1549.42494813	259.11687662009524	920.4476275967517	0.07298276033994802
1549.6749492700003	258.73518713803065	920.4477634117325	0.07300490408681048
1549.9249504099998	258.20715828919214	920.4476470849062	0.07298593775644216
1550.17495155	257.49825982066847	920.4475421491729	0.0729688286695
1550.4249526900003	256.5749762856655	920.4473878549403	0.07294367200114206
1550.67495383	255.4070512215475	920.4472447143982	0.07292033386926809
1550.9249549700003	253.97104820911744	920.4469894004895	0.07287870660156143
1551.1749561099998	252.25445378854647	920.4467212450978	0.07283498561376678
1551.42495725	250.25605761684065	920.446318582139	0.07276933404441122
1551.6749583900003	247.9835591399129	920.4458247481857	0.0726888176389697
1551.92495953	245.45095528525763	920.4448908238435	0.07253654736577753
1552.1749606700002	242.67599305900856	920.443989714733	0.07238962740211047
1552.42496181	239.6793018458738	920.4419974253672	0.07206479761421863
1552.6749629500002	236.48387389253105	920.4401140779613	0.07175773010238681
1552.9249640900002	233.11335879836213	920.4376469551461	0.07135548181729914
1553.17496523	229.59006549593596	920.436295078288	0.07113506711217735
1553.4249663700002	225.93579490331825	920.4383719107485	0.07147368110029799
1553.6749675099998	222.17294367522274	920.4492349335671	0.07324482612507352
1553.9249686500002	218.32569220420928	920.4840099974276	0.07891467349362832
1554.1749697900002	214.41859421806816	920.5803578610089	0.09462356429493078
1554.42497093	210.47338500171887	920.7818244708465	0.12747138111626913
1554.6749720700006	206.50675610082396	921.0980932229571	0.1790369385256258
1554.9249732099997	202.52997362079805	921.5306317635896	0.24955952667221803
1555.1749743500002	198.5499223685007	922.0606098628028	0.3359689993700281
1555.4249754900002	194.57051700609475	922.6668249799652	0.4348084206464937
1555.67497663	190.59387887617174	923.2671698705531	0.5326907397640815
1555.9249777700006	186.62112723543254	923.7729813409098	0.6151600012352927
1556.1749789099997	182.6528437608901	924.1718405902225	0.6801914005797446
1556.4249800500002	178.6893158822437	924.51654849139	0.7363937757701196
1556.6749811900008	174.73066358149447	924.8453081348533	0.789995891552173
1556.92498233	170.77690503569772	925.1774589125531	0.8441509096554018
1557.1749834700006	166.82799045745827	925.5226224845694	0.9004275790058907
1557.4249846099997	162.88382045848238	925.8828485945879	0.9591600969436775
1557.6749857500001	158.94425729641978	926.2648012187009	1.021434981309924
1557.9249868900001	155.00913270517088	926.6708923676391	1.0876454947237735
1558.17498803	151.0782538804738	927.1018084254176	1.1579035476224455
1558.4249891700006	147.15140822103263	927.5601744517555	1.2326371388731758
1558.6749903100003	143.22836715778368	928.0477113452276	1.3121268497653757
1558.92499145	139.30888922317672	928.566808613785	1.3967622739866958
1559.1749925900008	135.39272252290795	929.1193202999834	1.4868457010842582
1559.4249937299999	131.47960674864555	929.7074659284295	1.5827390100700414
1559.6749948700005	127.56927484392797	930.3335436909474	1.6848169061327232
1559.9249960100003	123.66145441284266	930.9999999999991	1.793478260869421
1560.17499715	119.75586893977922	931.0	1.7934782608695652
1560.4249982900008	115.85223887184168	931.0	1.7934782608695652
1560.6749994299998	111.95028260364771	931.0	1.7934782608695652
1560.8	110.0	931.0	1.7934782608695652
